# Filename: vlt_FPquench_vst_T_1_0.1_P_00.050_lmax10_dl0.008_tmax10000_dt05e-05.dat
# Source: vlt_FPquench.c
# Source version: 1 (2011 Jan 18)
# Parameter values: iTfrac=1, qTfrac=0.1, P=0.05 (Cc=1.10502, K0c=0.295611), lmax=10, lsteps=1250, (dl=0.008), lpts=1251, ldatamax=250, tmax=10000, dt0=5e-05, a0=1, a06=1, THETA=0.6, CONST=1
# time-step	t	T/Tc	1-T/Tc	l	K	K/K0	Kr/K0	G	vldens
0	0	1	0	10	0.387511	1.31088	5.95138e-05	5.46582e-28	0.20534
1	5e-05	0.1	0.9	10	0.378293	0.12797	5.80982e-06	5.73458e-28	0.204759
2	0.0001	0.1	0.9	10	0.378293	0.12797	5.80982e-06	5.73458e-28	0.204338
3	0.00015	0.1	0.9	10	0.378293	0.12797	5.80982e-06	5.73458e-28	0.203929
4	0.0002	0.1	0.9	10	0.378293	0.12797	5.80982e-06	5.73458e-28	0.203527
6	0.0003	0.1	0.9	10	0.378293	0.12797	5.80982e-06	5.73458e-28	0.20274
8	0.0004	0.1	0.9	10	0.378293	0.12797	5.80982e-06	5.73458e-28	0.201971
10	0.0005	0.1	0.9	10	0.378293	0.12797	5.80982e-06	5.73458e-28	0.201217
12	0.0006	0.1	0.9	10	0.378293	0.12797	5.80982e-06	5.73458e-28	0.200475
14	0.0007	0.1	0.9	10	0.378293	0.12797	5.80982e-06	5.73458e-28	0.199744
17	0.00085	0.1	0.9	10	0.378293	0.12797	5.80982e-06	5.73458e-28	0.198666
20	0.001	0.1	0.9	10	0.378294	0.12797	5.80982e-06	5.73458e-28	0.197608
24	0.0012	0.1	0.9	10	0.378294	0.12797	5.80982e-06	5.73458e-28	0.196227
28	0.0014	0.1	0.9	10	0.378294	0.12797	5.80983e-06	5.73458e-28	0.194874
32	0.0016	0.1	0.9	10	0.378294	0.12797	5.80983e-06	5.73458e-28	0.19355
37	0.00185	0.1	0.9	10	0.378294	0.12797	5.80983e-06	5.73458e-28	0.191929
43	0.00215	0.1	0.9	10	0.378294	0.12797	5.80983e-06	5.73458e-28	0.190032
49	0.00245	0.1	0.9	10	0.378294	0.12797	5.80983e-06	5.73458e-28	0.188183
56	0.0028	0.1	0.9	10	0.378294	0.12797	5.80984e-06	5.73458e-28	0.186083
64	0.0032	0.1	0.9	10	0.378295	0.12797	5.80984e-06	5.73458e-28	0.183751
73	0.00365	0.1	0.9	10	0.378295	0.12797	5.80984e-06	5.73458e-28	0.181209
83	0.00415	0.1	0.9	10	0.378295	0.12797	5.80985e-06	5.73458e-28	0.178477
94	0.0047	0.1	0.9	10	0.378295	0.12797	5.80985e-06	5.73458e-28	0.175575
107	0.00535	0.1	0.9	10	0.378296	0.127971	5.80985e-06	5.73458e-28	0.172275
121	0.00605	0.1	0.9	10	0.378296	0.127971	5.80986e-06	5.73458e-28	0.168863
137	0.00685	0.1	0.9	10	0.378296	0.127971	5.80987e-06	5.73458e-28	0.16513
155	0.00775	0.1	0.9	10	0.378297	0.127971	5.80987e-06	5.73458e-28	0.161123
175	0.00875	0.1	0.9	10	0.378297	0.127971	5.80988e-06	5.73458e-28	0.156886
197	0.00985	0.1	0.9	10	0.378298	0.127971	5.80989e-06	5.73458e-28	0.152464
222	0.0111	0.1	0.9	10	0.378298	0.127971	5.80989e-06	5.73458e-28	0.147713
250	0.0125	0.1	0.9	10	0.378299	0.127972	5.8099e-06	5.73458e-28	0.142701
282	0.0141	0.1	0.9	10	0.378299	0.127972	5.80991e-06	5.73458e-28	0.137331
318	0.0159	0.1	0.9	10	0.3783	0.127972	5.80993e-06	5.73458e-28	0.131695
357	0.01785	0.1	0.9	10	0.378301	0.127972	5.80994e-06	5.73458e-28	0.126018
402	0.0201	0.1	0.9	10	0.378302	0.127973	5.80995e-06	5.73459e-28	0.119955
452	0.0226	0.1	0.9	10	0.378303	0.127973	5.80997e-06	5.73459e-28	0.113756
508	0.0254	0.1	0.9	10	0.378304	0.127973	5.80998e-06	5.73459e-28	0.107399
572	0.0286	0.1	0.9	10	0.378305	0.127974	5.81e-06	5.73459e-28	0.100788
642	0.0321	0.1	0.9	10	0.378307	0.127974	5.81002e-06	5.73459e-28	0.0942476
722	0.0361	0.1	0.9	10	0.378308	0.127975	5.81005e-06	5.73459e-28	0.0875271
811	0.04055	0.1	0.9	10	0.37831	0.127975	5.81007e-06	5.7346e-28	0.0808548
911	0.04555	0.1	0.9	10	0.378312	0.127976	5.8101e-06	5.7346e-28	0.0742107
1023	0.05115	0.1	0.9	10	0.378314	0.127977	5.81013e-06	5.7346e-28	0.0676674
1149	0.05745	0.1	0.9	10	0.378316	0.127977	5.81017e-06	5.73461e-28	0.0612487
1290	0.0645	0.1	0.9	10	0.378319	0.127978	5.81021e-06	5.73461e-28	0.0550411
1449	0.07245	0.1	0.9	10	0.378321	0.127979	5.81025e-06	5.73461e-28	0.0490494
1627	0.08135	0.1	0.9	10	0.378324	0.12798	5.8103e-06	5.73462e-28	0.0433663
1826	0.0913	0.1	0.9	10	0.378328	0.127981	5.81035e-06	5.73462e-28	0.038037
2050	0.1025	0.1	0.9	10	0.378331	0.127983	5.8104e-06	5.73463e-28	0.0330605
2301	0.11505	0.1	0.9	10	0.378335	0.127984	5.81046e-06	5.73464e-28	0.028488
2583	0.12915	0.1	0.9	10	0.37834	0.127985	5.81053e-06	5.73465e-28	0.0243255
2899	0.14495	0.1	0.9	10	0.378345	0.127987	5.81061e-06	5.73465e-28	0.0205918
3254	0.1627	0.1	0.9	10	0.37835	0.127989	5.81069e-06	5.73466e-28	0.0172755
3652	0.1826	0.1	0.9	10	0.378356	0.127991	5.81078e-06	5.73467e-28	0.0143722
4099	0.20495	0.1	0.9	10	0.378362	0.127993	5.81088e-06	5.73469e-28	0.0118571
4600	0.23	0.1	0.9	10	0.378369	0.127995	5.81098e-06	5.7347e-28	0.00970851
5162	0.2581	0.1	0.9	10	0.378377	0.127998	5.8111e-06	5.73471e-28	0.00789229
5793	0.28965	0.1	0.9	10	0.378385	0.128001	5.81123e-06	5.73473e-28	0.00637247
6501	0.32505	0.1	0.9	10	0.378394	0.128004	5.81137e-06	5.73475e-28	0.00511461
7296	0.3648	0.1	0.9	10	0.378404	0.128007	5.81152e-06	5.73477e-28	0.00408268
8187	0.40935	0.1	0.9	10	0.378415	0.128011	5.81168e-06	5.7348e-28	0.00324486
9187	0.45935	0.1	0.9	10	0.378426	0.128015	5.81186e-06	5.73482e-28	0.0025688
10309	0.51545	0.1	0.9	10	0.378439	0.128019	5.81205e-06	5.73485e-28	0.0020271
11568	0.5784	0.1	0.9	10	0.378453	0.128024	5.81226e-06	5.73489e-28	0.00159555
12980	0.649	0.1	0.9	10	0.378467	0.128029	5.81249e-06	5.73493e-28	0.0012536
14565	0.72825	0.1	0.9	10	0.378484	0.128034	5.81274e-06	5.73497e-28	0.000983519
16343	0.81715	0.1	0.9	10	0.378501	0.12804	5.81301e-06	5.73502e-28	0.000771065
18339	0.91695	0.1	0.9	10	0.37852	0.128046	5.8133e-06	5.73507e-28	0.00060426
20577	1.02885	0.1	0.9	10	0.37854	0.128053	5.81361e-06	5.73513e-28	0.000473706
23089	1.15445	0.1	0.9	10	0.378563	0.128061	5.81395e-06	5.7352e-28	0.000371549
25908	1.2954	0.1	0.9	10	0.378586	0.128069	5.81432e-06	5.73528e-28	0.000291702
29070	1.4535	0.1	0.9	10	0.378612	0.128078	5.81472e-06	5.73536e-28	0.000229342
32618	1.6309	0.1	0.9	10	0.37864	0.128087	5.81515e-06	5.73546e-28	0.000180616
36599	1.82995	0.1	0.9	10	0.378671	0.128097	5.81561e-06	5.73556e-28	0.000142528
41066	2.0533	0.1	0.9	10	0.378703	0.128108	5.81611e-06	5.73568e-28	0.000112732
46078	2.3039	0.1	0.9	10	0.378738	0.12812	5.81666e-06	5.73582e-28	8.93991e-05
51701	2.58505	0.1	0.9	10	0.378776	0.128133	5.81724e-06	5.73597e-28	7.11051e-05
58011	2.90055	0.1	0.9	10	0.378818	0.128147	5.81787e-06	5.73614e-28	5.67368e-05
65090	3.2545	0.1	0.9	10	0.378862	0.128162	5.81855e-06	5.73633e-28	4.5436e-05
73034	3.6517	0.1	0.9	10	0.37891	0.128178	5.81928e-06	5.73655e-28	3.65292e-05
81946	4.0973	0.1	0.9	10	0.378961	0.128196	5.82008e-06	5.73679e-28	2.94983e-05
91946	4.5973	0.1	0.9	10	0.379017	0.128215	5.82093e-06	5.73705e-28	2.39363e-05
103166	5.1583	0.1	0.9	10	0.379077	0.128235	5.82185e-06	5.73735e-28	1.95285e-05
115756	5.7878	0.1	0.9	10	0.379142	0.128257	5.82285e-06	5.73769e-28	1.60291e-05
129881	6.49405	0.1	0.9	10	0.379212	0.12828	5.82392e-06	5.73807e-28	1.3247e-05
145730	7.2865	0.1	0.9	10	0.379287	0.128306	5.82508e-06	5.73849e-28	1.10323e-05
163513	8.17565	0.1	0.9	10	0.379369	0.128334	5.82633e-06	5.73897e-28	9.26806e-06
183465	9.17325	0.1	0.9	10	0.379457	0.128363	5.82769e-06	5.7395e-28	7.86224e-06
205852	10.2926	0.1	0.9	10	0.379552	0.128395	5.82914e-06	5.74009e-28	6.74192e-06
230971	11.5485	0.1	0.9	10	0.379654	0.12843	5.83072e-06	5.74076e-28	5.84886e-06
259155	12.9577	0.1	0.9	10	0.379765	0.128468	5.83242e-06	5.74151e-28	5.13616e-06
290778	14.5389	0.1	0.9	10	0.379885	0.128508	5.83426e-06	5.74234e-28	4.5667e-06
