# Filename: 3Dvlt_macro_nitKth_T_Cc1.10_lmax10_dl0.001_Op1_usingK0cFind3dl.dat
# Source: 3Dvlt_macro.c
# Source version: 9 (2011 Aug 17 - ...)
# Constant values: PI= 3.141592653589793116, PISQ=9.8696044010893579923, PICU=31.0062766802998162063, B=41.3417022403997549418, THETA=0.6
# Parameter values: N=3, Cc=1.1, K0c=0.296468945958469, lmax=10, lsteps=10000, (dl=0.001), lpts=10001, ldatamax=10, a0=1, a03=1, a06=1
# Option values: Op=1
T/Tc	1-T/Tc	l	K	y	e	K/K0	Kr/K0
1.5	-0.5	10	3.25467e-25	5.20238e+23	-5.10179e+10	1.64672e-24	7.47609e-29	0.00455547
1.01	-0.01	10	6.41876e-19	2.6379e+17	-25869	2.18672e-18	9.9277e-23	2.30988e-09
1.005	-0.005	10	1.03498e-17	1.63598e+16	-1604.4	3.50848e-17	1.59285e-21	1.43254e-10
1	0	10	0.413127	0.0530865	-0.0510268	1.39349	6.32645e-05	4.64852e-28
0.9	0.1	10	4.2804	0.00584508	-0.0293648	12.9941	0.000589933	5.11825e-29
0.8	0.2	10	4.07774	0.00637238	-0.0160598	11.0035	0.000499557	5.57998e-29
0.7	0.3	10	4.06101	0.00569124	-0.00782781	9.58855	0.000435319	4.98354e-29
0.6	0.4	10	4.1192	0.00537452	-0.00316373	8.33653	0.000378478	4.7062e-29
0.5	0.5	10	4.17905	0.00537014	-0.000943388	7.04804	0.000319981	4.70237e-29
0.4	0.6	10	4.21823	0.00558141	-0.000173428	5.69129	0.000258384	4.88737e-29
0.3	0.7	10	4.21843	0.00594681	-3.62863e-05	4.26867	0.000193798	5.20733e-29
0.2	0.8	10	4.16546	0.0062654	-8.06e-05	2.81005	0.000127576	5.48631e-29
0.1	0.9	10	4.10823	0.0063024	-0.000468375	1.38572	6.29116e-05	5.51871e-29
0.05	0.95	10	4.19505	0.00638914	-0.00222096	0.707502	3.21205e-05	5.59466e-29
0.02	0.98	10	4.90898e-18	3.4492e+16	-3382.52	3.31163e-19	1.50348e-23	3.02029e-10
0.017	0.983	10	4.87479e-21	3.4734e+19	-3.40623e+06	2.79528e-22	1.26905e-26	3.04148e-07
